Wavelength (nm),Absorbance,Title,Time
190,0.345,bod15_1jul,7/2/2014 1:48:01 PM
191,0.438,,
192,0.002,,
193,-0.545,,
194,-0.806,,
195,-0.365,,
196,0.032,,
197,0.212,,
198,0.071,,
199,-0.024,,
200,-0.041,,
201,-0.135,,
202,0.019,,
203,-0.128,,
204,-0.131,,
205,-0.446,,
206,-0.686,,
207,-0.764,,
208,-0.666,,
209,-0.219,,
210,0.08,,
211,0.149,,
212,0.046,,
213,-0.039,,
214,-0.165,,
215,-0.238,,
216,-0.23,,
217,-0.074,,
218,0.076,,
219,0.17,,
220,0.198,,
221,0.167,,
222,0.148,,
223,0.153,,
224,0.167,,
225,0.17,,
226,0.163,,
227,0.164,,
228,0.166,,
229,0.169,,
230,0.165,,
231,0.158,,
232,0.151,,
233,0.147,,
234,0.147,,
235,0.146,,
236,0.145,,
237,0.143,,
238,0.14,,
239,0.136,,
240,0.134,,
241,0.133,,
242,0.133,,
243,0.133,,
244,0.129,,
245,0.128,,
246,0.128,,
247,0.13,,
248,0.129,,
249,0.125,,
250,0.123,,
251,0.122,,
252,0.121,,
253,0.12,,
254,0.12,,
255,0.119,,
256,0.117,,
257,0.117,,
258,0.117,,
259,0.117,,
260,0.116,,
261,0.114,,
262,0.113,,
263,0.112,,
264,0.111,,
265,0.109,,
266,0.108,,
267,0.107,,
268,0.106,,
269,0.104,,
270,0.103,,
271,0.102,,
272,0.101,,
273,0.099,,
274,0.098,,
275,0.098,,
276,0.097,,
277,0.096,,
278,0.094,,
279,0.092,,
280,0.091,,
281,0.09,,
282,0.088,,
283,0.087,,
284,0.085,,
285,0.084,,
286,0.083,,
287,0.082,,
288,0.081,,
289,0.079,,
290,0.078,,
291,0.078,,
292,0.077,,
293,0.076,,
294,0.075,,
295,0.074,,
296,0.075,,
297,0.075,,
298,0.073,,
299,0.071,,
300,0.069,,
301,0.068,,
302,0.067,,
303,0.066,,
304,0.064,,
305,0.064,,
306,0.063,,
307,0.063,,
308,0.063,,
309,0.062,,
310,0.061,,
311,0.06,,
312,0.059,,
313,0.058,,
314,0.058,,
315,0.058,,
316,0.057,,
317,0.056,,
318,0.055,,
319,0.055,,
320,0.054,,
321,0.052,,
322,0.051,,
323,0.05,,
324,0.05,,
325,0.05,,
326,0.05,,
327,0.049,,
328,0.049,,
329,0.048,,
330,0.049,,
331,0.048,,
332,0.046,,
333,0.045,,
334,0.045,,
335,0.044,,
336,0.044,,
337,0.043,,
338,0.043,,
339,0.043,,
340,0.042,,
341,0.041,,
342,0.04,,
343,0.039,,
344,0.038,,
345,0.038,,
346,0.039,,
347,0.039,,
348,0.04,,
349,0.039,,
350,0.037,,
351,0.037,,
352,0.036,,
353,0.034,,
354,0.034,,
355,0.034,,
356,0.034,,
357,0.034,,
358,0.034,,
359,0.034,,
360,0.032,,
361,0.031,,
362,0.031,,
363,0.03,,
364,0.03,,
365,0.03,,
366,0.03,,
367,0.03,,
368,0.03,,
369,0.029,,
370,0.029,,
371,0.028,,
372,0.027,,
373,0.027,,
374,0.027,,
375,0.026,,
376,0.026,,
377,0.026,,
378,0.025,,
379,0.025,,
380,0.025,,
381,0.025,,
382,0.023,,
383,0.022,,
384,0.023,,
385,0.023,,
386,0.023,,
387,0.022,,
388,0.021,,
389,0.022,,
390,0.022,,
391,0.022,,
392,0.022,,
393,0.021,,
394,0.022,,
395,0.021,,
396,0.019,,
397,0.019,,
398,0.018,,
399,0.018,,
400,0.018,,
401,0.018,,
402,0.018,,
403,0.018,,
404,0.017,,
405,0.016,,
406,0.016,,
407,0.016,,
408,0.017,,
409,0.017,,
410,0.017,,
411,0.016,,
412,0.015,,
413,0.016,,
414,0.016,,
415,0.017,,
416,0.016,,
417,0.015,,
418,0.015,,
419,0.015,,
420,0.014,,
421,0.013,,
422,0.014,,
423,0.014,,
424,0.013,,
425,0.013,,
426,0.013,,
427,0.013,,
428,0.012,,
429,0.012,,
430,0.012,,
431,0.012,,
432,0.012,,
433,0.011,,
434,0.01,,
435,0.011,,
436,0.012,,
437,0.012,,
438,0.012,,
439,0.012,,
440,0.012,,
441,0.011,,
442,0.011,,
443,0.011,,
444,0.01,,
445,0.011,,
446,0.011,,
447,0.011,,
448,0.01,,
449,0.01,,
450,0.009,,
451,0.009,,
452,0.009,,
453,0.009,,
454,0.009,,
455,0.008,,
456,0.008,,
457,0.007,,
458,0.008,,
459,0.009,,
460,0.009,,
461,0.009,,
462,0.008,,
463,0.008,,
464,0.008,,
465,0.007,,
466,0.007,,
467,0.008,,
468,0.008,,
469,0.008,,
470,0.007,,
471,0.007,,
472,0.007,,
473,0.007,,
474,0.006,,
475,0.007,,
476,0.007,,
477,0.007,,
478,0.007,,
479,0.007,,
480,0.008,,
481,0.008,,
482,0.007,,
483,0.007,,
484,0.007,,
485,0.007,,
486,0.007,,
487,0.007,,
488,0.007,,
489,0.007,,
490,0.007,,
491,0.007,,
492,0.008,,
493,0.007,,
494,0.006,,
495,0.006,,
496,0.006,,
497,0.005,,
498,0.005,,
499,0.005,,
500,0.006,,
501,0.006,,
502,0.006,,
503,0.006,,
504,0.005,,
505,0.004,,
506,0.003,,
507,0.004,,
508,0.005,,
509,0.006,,
510,0.008,,
511,0.008,,
512,0.007,,
513,0.005,,
514,0.005,,
515,0.006,,
516,0.006,,
517,0.006,,
518,0.005,,
519,0.005,,
520,0.005,,
521,0.005,,
522,0.005,,
523,0.003,,
524,0.002,,
525,0.003,,
526,0.003,,
527,0.004,,
528,0.005,,
529,0.006,,
530,0.005,,
531,0.004,,
532,0.003,,
533,0.003,,
534,0.004,,
535,0.005,,
536,0.005,,
537,0.005,,
538,0.006,,
539,0.005,,
540,0.003,,
541,0.003,,
542,0.004,,
543,0.005,,
544,0.006,,
545,0.005,,
546,0.004,,
547,0.004,,
548,0.003,,
549,0.004,,
550,0.004,,
551,0.004,,
552,0.003,,
553,0.002,,
554,0.002,,
555,0.003,,
556,0.003,,
557,0.003,,
558,0.002,,
559,0.002,,
560,0.002,,
561,0.003,,
562,0.005,,
563,0.004,,
564,0.003,,
565,0.002,,
566,0.003,,
567,0.002,,
568,0.002,,
569,0.002,,
570,0.003,,
571,0.004,,
572,0.003,,
573,0.002,,
574,0.003,,
575,0.003,,
576,0.003,,
577,0.003,,
578,0.003,,
579,0.005,,
580,0.004,,
581,0.002,,
582,0.003,,
583,0.003,,
584,0.003,,
585,0.002,,
586,0,,
587,0.002,,
588,0.002,,
589,0.004,,
590,0.004,,
591,0.004,,
592,0.003,,
593,0.002,,
594,0.001,,
595,0.002,,
596,0.003,,
597,0.005,,
598,0.006,,
599,0.006,,
600,0.003,,
601,0.001,,
602,0.001,,
603,0,,
604,0.002,,
605,0.003,,
606,0.003,,
607,0.002,,
608,0.001,,
609,0.002,,
610,0.003,,
611,0.002,,
612,0.002,,
613,0,,
614,0,,
615,0.002,,
616,0.003,,
617,0.003,,
618,0.002,,
619,0.002,,
620,0.001,,
621,0.002,,
622,0.001,,
623,0.001,,
624,0.001,,
625,0.002,,
626,0.003,,
627,0.002,,
628,0.002,,
629,0,,
630,0.002,,
631,0.003,,
632,0.004,,
633,0.002,,
634,0,,
635,0,,
636,0,,
637,0,,
638,0.002,,
639,0.003,,
640,0.002,,
641,0.001,,
642,0.001,,
643,0.001,,
644,0.001,,
645,0,,
646,0,,
647,0.001,,
648,0.001,,
649,0.002,,
650,0.002,,
651,0,,
652,-0.001,,
653,-0.001,,
654,0,,
655,0.001,,
656,0.002,,
657,0.002,,
658,0.002,,
659,-0.001,,
660,0,,
661,0.002,,
662,0.003,,
663,0.002,,
664,0.001,,
665,0.002,,
666,0.003,,
667,0.003,,
668,0.002,,
669,0.002,,
670,0.001,,
671,0,,
672,-0.001,,
673,0.002,,
674,0.002,,
675,0.002,,
676,0.002,,
677,0.002,,
678,0.001,,
679,0,,
680,0.001,,
681,0.002,,
682,0.001,,
683,-0.001,,
684,0,,
685,0.002,,
686,0.003,,
687,0.004,,
688,0.001,,
689,0.001,,
690,0.001,,
691,0.002,,
692,0.002,,
693,0.001,,
694,-0.002,,
695,-0.002,,
696,-0.002,,
697,0,,
698,0.001,,
699,0.002,,
700,0,,
701,-0.001,,
702,-0.002,,
703,0.001,,
704,0.002,,
705,0.002,,
706,0.002,,
707,0,,
708,0.001,,
709,0.002,,
710,0.002,,
711,0.002,,
712,0.002,,
713,0.001,,
714,0,,
715,-0.001,,
716,0,,
717,0,,
718,0.001,,
719,0.002,,
720,0.002,,
721,0.002,,
722,0.002,,
723,0,,
724,0,,
725,0,,
726,0,,
727,0,,
728,0,,
729,0.001,,
730,0,,
731,0.001,,
732,0,,
733,0.002,,
734,0.003,,
735,0.003,,
736,0.001,,
737,0.003,,
738,0.002,,
739,0,,
740,-0.001,,
741,0.001,,
742,0.001,,
743,-0.002,,
744,-0.001,,
745,-0.001,,
746,0,,
747,-0.003,,
748,-0.003,,
749,-0.002,,
750,0,,
751,0.001,,
752,0.002,,
753,0.002,,
754,-0.001,,
755,-0.001,,
756,0.001,,
757,0.002,,
758,0.002,,
759,0,,
760,0.001,,
761,0.001,,
762,0.002,,
763,0.002,,
764,0.002,,
765,0.001,,
766,0.001,,
767,0.002,,
768,0.002,,
769,0,,
770,0.001,,
771,0.003,,
772,0.002,,
773,0.002,,
774,0.001,,
775,0.001,,
776,0,,
777,0.002,,
778,0.002,,
779,0.001,,
780,0,,
781,-0.001,,
782,0.001,,
783,-0.001,,
784,-0.004,,
785,-0.006,,
786,-0.004,,
787,-0.003,,
788,-0.003,,
789,-0.001,,
790,0.002,,
791,0.002,,
792,-0.001,,
793,-0.003,,
794,-0.001,,
795,0.001,,
796,0,,
797,0.003,,
798,0.006,,
799,0.002,,
800,-0.002,,
801,-0.002,,
802,0.002,,
803,0.002,,
804,0.003,,
805,0.002,,
806,0,,
807,-0.007,,
808,-0.008,,
809,-0.008,,
810,-0.004,,
811,-0.005,,
812,-0.005,,
813,-0.002,,
814,0.002,,
815,0.005,,
816,0.005,,
817,0.003,,
818,0.002,,
819,0.001,,
820,-0.001,,
821,-0.002,,
822,0.001,,
823,0.003,,
824,0,,
825,0.001,,
826,0.002,,
827,0.003,,
828,0.002,,
829,0.005,,
830,0.006,,
831,0.002,,
832,-0.002,,
833,0,,
834,0.003,,
835,0.006,,
836,0.006,,
837,0.002,,
838,0,,
839,-0.001,,
840,0.003,,
