Wavelength (nm),Absorbance,Title,Time
190,0.495,rep_waterN_1jul,7/2/2014 1:52:17 PM
191,0.55,,
192,0.205,,
193,-0.439,,
194,-0.428,,
195,0.093,,
196,0.775,,
197,0.684,,
198,0.154,,
199,-0.432,,
200,-0.537,,
201,-0.159,,
202,0.013,,
203,0.073,,
204,-0.111,,
205,-0.578,,
206,-0.703,,
207,-0.929,,
208,-0.702,,
209,-0.389,,
210,-0.046,,
211,0.202,,
212,0.194,,
213,0.198,,
214,-0.009,,
215,-0.029,,
216,-0.078,,
217,-0.006,,
218,0.125,,
219,0.238,,
220,0.303,,
221,0.274,,
222,0.214,,
223,0.209,,
224,0.219,,
225,0.213,,
226,0.205,,
227,0.197,,
228,0.192,,
229,0.19,,
230,0.181,,
231,0.172,,
232,0.161,,
233,0.153,,
234,0.148,,
235,0.143,,
236,0.14,,
237,0.137,,
238,0.133,,
239,0.129,,
240,0.126,,
241,0.123,,
242,0.124,,
243,0.123,,
244,0.12,,
245,0.118,,
246,0.117,,
247,0.117,,
248,0.116,,
249,0.113,,
250,0.111,,
251,0.11,,
252,0.108,,
253,0.107,,
254,0.106,,
255,0.106,,
256,0.105,,
257,0.103,,
258,0.102,,
259,0.101,,
260,0.1,,
261,0.1,,
262,0.099,,
263,0.097,,
264,0.096,,
265,0.095,,
266,0.094,,
267,0.093,,
268,0.091,,
269,0.09,,
270,0.09,,
271,0.088,,
272,0.087,,
273,0.085,,
274,0.083,,
275,0.083,,
276,0.082,,
277,0.082,,
278,0.081,,
279,0.079,,
280,0.076,,
281,0.074,,
282,0.073,,
283,0.072,,
284,0.07,,
285,0.069,,
286,0.067,,
287,0.067,,
288,0.066,,
289,0.064,,
290,0.063,,
291,0.063,,
292,0.062,,
293,0.06,,
294,0.06,,
295,0.059,,
296,0.059,,
297,0.058,,
298,0.057,,
299,0.055,,
300,0.053,,
301,0.052,,
302,0.051,,
303,0.05,,
304,0.048,,
305,0.048,,
306,0.047,,
307,0.047,,
308,0.046,,
309,0.046,,
310,0.045,,
311,0.044,,
312,0.043,,
313,0.042,,
314,0.042,,
315,0.041,,
316,0.041,,
317,0.04,,
318,0.04,,
319,0.039,,
320,0.038,,
321,0.036,,
322,0.035,,
323,0.034,,
324,0.034,,
325,0.034,,
326,0.034,,
327,0.033,,
328,0.033,,
329,0.033,,
330,0.033,,
331,0.033,,
332,0.031,,
333,0.03,,
334,0.029,,
335,0.029,,
336,0.029,,
337,0.028,,
338,0.028,,
339,0.027,,
340,0.027,,
341,0.027,,
342,0.025,,
343,0.025,,
344,0.023,,
345,0.023,,
346,0.023,,
347,0.024,,
348,0.024,,
349,0.024,,
350,0.023,,
351,0.022,,
352,0.02,,
353,0.02,,
354,0.02,,
355,0.02,,
356,0.019,,
357,0.019,,
358,0.019,,
359,0.02,,
360,0.018,,
361,0.017,,
362,0.017,,
363,0.016,,
364,0.016,,
365,0.016,,
366,0.015,,
367,0.016,,
368,0.015,,
369,0.016,,
370,0.015,,
371,0.015,,
372,0.014,,
373,0.014,,
374,0.013,,
375,0.013,,
376,0.013,,
377,0.013,,
378,0.012,,
379,0.012,,
380,0.012,,
381,0.012,,
382,0.011,,
383,0.01,,
384,0.011,,
385,0.011,,
386,0.01,,
387,0.009,,
388,0.009,,
389,0.01,,
390,0.009,,
391,0.009,,
392,0.009,,
393,0.01,,
394,0.01,,
395,0.009,,
396,0.007,,
397,0.007,,
398,0.008,,
399,0.009,,
400,0.008,,
401,0.008,,
402,0.007,,
403,0.006,,
404,0.006,,
405,0.006,,
406,0.006,,
407,0.006,,
408,0.006,,
409,0.006,,
410,0.007,,
411,0.006,,
412,0.006,,
413,0.006,,
414,0.005,,
415,0.005,,
416,0.005,,
417,0.005,,
418,0.005,,
419,0.005,,
420,0.004,,
421,0.004,,
422,0.005,,
423,0.005,,
424,0.005,,
425,0.005,,
426,0.005,,
427,0.005,,
428,0.004,,
429,0.003,,
430,0.003,,
431,0.004,,
432,0.003,,
433,0.002,,
434,0.002,,
435,0.003,,
436,0.004,,
437,0.004,,
438,0.004,,
439,0.003,,
440,0.004,,
441,0.004,,
442,0.003,,
443,0.003,,
444,0.003,,
445,0.003,,
446,0.003,,
447,0.003,,
448,0.003,,
449,0.003,,
450,0.002,,
451,0.002,,
452,0.002,,
453,0.002,,
454,0.002,,
455,0.001,,
456,0.001,,
457,0.001,,
458,0.001,,
459,0.002,,
460,0.002,,
461,0.002,,
462,0.001,,
463,0.001,,
464,0.001,,
465,0.001,,
466,0,,
467,0.001,,
468,0.001,,
469,0,,
470,0,,
471,0,,
472,0.001,,
473,0.001,,
474,0.001,,
475,0.001,,
476,0.001,,
477,0.001,,
478,0,,
479,0,,
480,0.001,,
481,0.001,,
482,0.001,,
483,0,,
484,0.001,,
485,0.001,,
486,0.002,,
487,0.001,,
488,0,,
489,0,,
490,0.001,,
491,0.002,,
492,0.002,,
493,0.001,,
494,0,,
495,0.001,,
496,0.001,,
497,0,,
498,0,,
499,-0.001,,
500,0,,
501,0,,
502,0.001,,
503,0,,
504,0,,
505,-0.001,,
506,-0.001,,
507,-0.001,,
508,-0.001,,
509,0.001,,
510,0.002,,
511,0.002,,
512,0.001,,
513,-0.001,,
514,0,,
515,0,,
516,0,,
517,0,,
518,-0.001,,
519,0,,
520,0,,
521,0,,
522,0,,
523,-0.002,,
524,-0.002,,
525,-0.002,,
526,-0.001,,
527,0,,
528,0.001,,
529,0.001,,
530,0,,
531,0,,
532,-0.001,,
533,-0.001,,
534,-0.001,,
535,0,,
536,0.001,,
537,0.001,,
538,0.001,,
539,0.001,,
540,-0.001,,
541,-0.002,,
542,-0.001,,
543,0,,
544,0.001,,
545,0.001,,
546,0,,
547,0,,
548,-0.001,,
549,0,,
550,-0.001,,
551,-0.001,,
552,-0.001,,
553,-0.002,,
554,-0.002,,
555,-0.002,,
556,-0.002,,
557,-0.001,,
558,-0.002,,
559,-0.002,,
560,-0.002,,
561,-0.001,,
562,0.001,,
563,0,,
564,0,,
565,-0.001,,
566,-0.001,,
567,-0.002,,
568,-0.002,,
569,0,,
570,0,,
571,-0.001,,
572,-0.001,,
573,-0.002,,
574,-0.001,,
575,0,,
576,0,,
577,-0.001,,
578,-0.001,,
579,0,,
580,0,,
581,-0.002,,
582,-0.001,,
583,0,,
584,0,,
585,0,,
586,-0.002,,
587,-0.001,,
588,-0.001,,
589,0,,
590,0,,
591,0,,
592,0,,
593,-0.001,,
594,-0.001,,
595,-0.001,,
596,-0.001,,
597,0.001,,
598,0.002,,
599,0.002,,
600,0,,
601,-0.001,,
602,-0.002,,
603,-0.003,,
604,-0.001,,
605,0,,
606,0,,
607,-0.001,,
608,-0.002,,
609,-0.002,,
610,-0.001,,
611,0,,
612,0,,
613,-0.002,,
614,-0.002,,
615,-0.001,,
616,0,,
617,-0.001,,
618,-0.001,,
619,-0.002,,
620,-0.002,,
621,-0.001,,
622,-0.001,,
623,-0.001,,
624,-0.001,,
625,0,,
626,0,,
627,0,,
628,-0.002,,
629,-0.003,,
630,-0.002,,
631,-0.001,,
632,0.001,,
633,0,,
634,-0.002,,
635,-0.003,,
636,-0.002,,
637,-0.002,,
638,-0.002,,
639,-0.001,,
640,0,,
641,-0.002,,
642,-0.002,,
643,-0.001,,
644,-0.001,,
645,-0.001,,
646,-0.002,,
647,-0.002,,
648,-0.002,,
649,-0.001,,
650,0,,
651,-0.001,,
652,-0.003,,
653,-0.004,,
654,-0.004,,
655,-0.002,,
656,0,,
657,0,,
658,-0.001,,
659,-0.004,,
660,-0.002,,
661,-0.001,,
662,0,,
663,-0.001,,
664,-0.001,,
665,0,,
666,0,,
667,0.001,,
668,0,,
669,0,,
670,-0.001,,
671,-0.002,,
672,-0.003,,
673,0,,
674,0,,
675,0,,
676,0,,
677,0,,
678,-0.001,,
679,-0.002,,
680,-0.001,,
681,0,,
682,-0.001,,
683,-0.002,,
684,-0.001,,
685,0,,
686,0,,
687,0,,
688,0,,
689,0,,
690,0,,
691,-0.001,,
692,0,,
693,-0.001,,
694,-0.003,,
695,-0.003,,
696,-0.004,,
697,-0.002,,
698,-0.001,,
699,0,,
700,-0.001,,
701,-0.002,,
702,-0.003,,
703,-0.001,,
704,-0.001,,
705,-0.001,,
706,0,,
707,-0.001,,
708,0,,
709,-0.002,,
710,-0.001,,
711,0,,
712,0.001,,
713,0,,
714,-0.001,,
715,-0.002,,
716,-0.001,,
717,-0.002,,
718,-0.001,,
719,0,,
720,0.001,,
721,0,,
722,-0.001,,
723,-0.002,,
724,-0.002,,
725,-0.002,,
726,-0.002,,
727,-0.003,,
728,-0.003,,
729,-0.002,,
730,-0.001,,
731,-0.001,,
732,-0.004,,
733,-0.003,,
734,0,,
735,0,,
736,-0.001,,
737,0.001,,
738,0,,
739,-0.001,,
740,-0.003,,
741,-0.002,,
742,-0.001,,
743,-0.004,,
744,-0.002,,
745,-0.001,,
746,0,,
747,-0.004,,
748,-0.004,,
749,-0.002,,
750,0,,
751,-0.001,,
752,-0.001,,
753,-0.001,,
754,-0.002,,
755,-0.002,,
756,-0.001,,
757,0.001,,
758,0.001,,
759,0,,
760,0,,
761,-0.001,,
762,0,,
763,0,,
764,0,,
765,-0.001,,
766,0.002,,
767,0.001,,
768,-0.001,,
769,-0.002,,
770,0.001,,
771,0.001,,
772,0,,
773,0.001,,
774,0,,
775,0,,
776,-0.002,,
777,0,,
778,-0.001,,
779,-0.001,,
780,-0.002,,
781,0,,
782,0,,
783,-0.003,,
784,-0.005,,
785,-0.002,,
786,-0.005,,
787,-0.004,,
788,-0.003,,
789,0,,
790,0.002,,
791,0.002,,
792,0,,
793,-0.001,,
794,0,,
795,0,,
796,0,,
797,0.002,,
798,0.005,,
799,-0.001,,
800,-0.004,,
801,-0.007,,
802,0,,
803,0,,
804,0.004,,
805,0.002,,
806,-0.002,,
807,-0.009,,
808,-0.006,,
809,-0.006,,
810,-0.006,,
811,-0.008,,
812,-0.006,,
813,-0.003,,
814,0.003,,
815,0.007,,
816,0.002,,
817,-0.005,,
818,-0.008,,
819,-0.002,,
820,0,,
821,-0.001,,
822,0,,
823,0.002,,
824,-0.001,,
825,-0.001,,
826,0.002,,
827,0.002,,
828,0.001,,
829,0.003,,
830,0.007,,
831,0.004,,
832,0,,
833,0,,
834,0.001,,
835,0.001,,
836,0.004,,
837,0.002,,
838,0.001,,
839,0.001,,
840,0.008,,
