Wavelength (nm),Absorbance,Title,Time
190,0.418,bod12_1jul,7/2/2014 1:43:57 PM
191,0.284,,
192,-0.088,,
193,-0.422,,
194,-0.344,,
195,-0.011,,
196,0.22,,
197,0.19,,
198,-0.093,,
199,-0.089,,
200,0.029,,
201,0.178,,
202,0.123,,
203,-0.086,,
204,-0.118,,
205,-0.457,,
206,-0.51,,
207,-0.431,,
208,-0.186,,
209,0.035,,
210,0.005,,
211,0.04,,
212,0.216,,
213,0.315,,
214,-0.021,,
215,-0.206,,
216,-0.148,,
217,0.116,,
218,0.28,,
219,0.234,,
220,0.178,,
221,0.188,,
222,0.183,,
223,0.174,,
224,0.192,,
225,0.189,,
226,0.193,,
227,0.194,,
228,0.194,,
229,0.196,,
230,0.189,,
231,0.185,,
232,0.18,,
233,0.175,,
234,0.173,,
235,0.17,,
236,0.17,,
237,0.168,,
238,0.165,,
239,0.16,,
240,0.155,,
241,0.154,,
242,0.155,,
243,0.154,,
244,0.152,,
245,0.15,,
246,0.15,,
247,0.15,,
248,0.148,,
249,0.144,,
250,0.142,,
251,0.141,,
252,0.14,,
253,0.139,,
254,0.137,,
255,0.135,,
256,0.134,,
257,0.133,,
258,0.132,,
259,0.133,,
260,0.132,,
261,0.131,,
262,0.13,,
263,0.128,,
264,0.127,,
265,0.126,,
266,0.125,,
267,0.122,,
268,0.12,,
269,0.119,,
270,0.119,,
271,0.118,,
272,0.116,,
273,0.113,,
274,0.112,,
275,0.112,,
276,0.111,,
277,0.11,,
278,0.109,,
279,0.107,,
280,0.105,,
281,0.102,,
282,0.101,,
283,0.1,,
284,0.098,,
285,0.096,,
286,0.095,,
287,0.094,,
288,0.093,,
289,0.091,,
290,0.09,,
291,0.089,,
292,0.088,,
293,0.087,,
294,0.085,,
295,0.084,,
296,0.084,,
297,0.084,,
298,0.083,,
299,0.08,,
300,0.077,,
301,0.076,,
302,0.076,,
303,0.075,,
304,0.073,,
305,0.072,,
306,0.07,,
307,0.069,,
308,0.069,,
309,0.069,,
310,0.069,,
311,0.068,,
312,0.066,,
313,0.065,,
314,0.065,,
315,0.064,,
316,0.062,,
317,0.061,,
318,0.06,,
319,0.06,,
320,0.059,,
321,0.058,,
322,0.056,,
323,0.055,,
324,0.055,,
325,0.055,,
326,0.055,,
327,0.054,,
328,0.054,,
329,0.054,,
330,0.053,,
331,0.052,,
332,0.051,,
333,0.05,,
334,0.049,,
335,0.048,,
336,0.048,,
337,0.047,,
338,0.046,,
339,0.046,,
340,0.045,,
341,0.045,,
342,0.043,,
343,0.042,,
344,0.041,,
345,0.04,,
346,0.041,,
347,0.042,,
348,0.042,,
349,0.041,,
350,0.04,,
351,0.039,,
352,0.038,,
353,0.037,,
354,0.036,,
355,0.036,,
356,0.036,,
357,0.036,,
358,0.036,,
359,0.036,,
360,0.034,,
361,0.033,,
362,0.033,,
363,0.032,,
364,0.032,,
365,0.031,,
366,0.031,,
367,0.031,,
368,0.03,,
369,0.03,,
370,0.03,,
371,0.029,,
372,0.028,,
373,0.028,,
374,0.028,,
375,0.027,,
376,0.026,,
377,0.026,,
378,0.026,,
379,0.026,,
380,0.025,,
381,0.026,,
382,0.025,,
383,0.023,,
384,0.023,,
385,0.023,,
386,0.023,,
387,0.022,,
388,0.022,,
389,0.022,,
390,0.023,,
391,0.022,,
392,0.022,,
393,0.022,,
394,0.022,,
395,0.021,,
396,0.02,,
397,0.019,,
398,0.019,,
399,0.019,,
400,0.019,,
401,0.018,,
402,0.018,,
403,0.018,,
404,0.018,,
405,0.018,,
406,0.018,,
407,0.017,,
408,0.017,,
409,0.017,,
410,0.018,,
411,0.017,,
412,0.016,,
413,0.016,,
414,0.016,,
415,0.016,,
416,0.015,,
417,0.015,,
418,0.015,,
419,0.015,,
420,0.014,,
421,0.013,,
422,0.014,,
423,0.014,,
424,0.014,,
425,0.013,,
426,0.013,,
427,0.013,,
428,0.012,,
429,0.012,,
430,0.012,,
431,0.012,,
432,0.012,,
433,0.011,,
434,0.01,,
435,0.011,,
436,0.012,,
437,0.012,,
438,0.012,,
439,0.011,,
440,0.011,,
441,0.011,,
442,0.011,,
443,0.01,,
444,0.01,,
445,0.01,,
446,0.01,,
447,0.01,,
448,0.01,,
449,0.01,,
450,0.009,,
451,0.009,,
452,0.008,,
453,0.008,,
454,0.008,,
455,0.008,,
456,0.007,,
457,0.007,,
458,0.008,,
459,0.008,,
460,0.009,,
461,0.008,,
462,0.008,,
463,0.007,,
464,0.007,,
465,0.007,,
466,0.007,,
467,0.007,,
468,0.007,,
469,0.007,,
470,0.007,,
471,0.006,,
472,0.006,,
473,0.006,,
474,0.006,,
475,0.007,,
476,0.007,,
477,0.007,,
478,0.006,,
479,0.006,,
480,0.007,,
481,0.007,,
482,0.007,,
483,0.007,,
484,0.007,,
485,0.008,,
486,0.007,,
487,0.007,,
488,0.006,,
489,0.006,,
490,0.006,,
491,0.007,,
492,0.007,,
493,0.006,,
494,0.005,,
495,0.005,,
496,0.005,,
497,0.005,,
498,0.004,,
499,0.004,,
500,0.005,,
501,0.005,,
502,0.006,,
503,0.005,,
504,0.005,,
505,0.004,,
506,0.003,,
507,0.003,,
508,0.005,,
509,0.006,,
510,0.007,,
511,0.007,,
512,0.006,,
513,0.005,,
514,0.005,,
515,0.005,,
516,0.005,,
517,0.005,,
518,0.004,,
519,0.005,,
520,0.005,,
521,0.006,,
522,0.004,,
523,0.002,,
524,0.002,,
525,0.003,,
526,0.003,,
527,0.003,,
528,0.004,,
529,0.005,,
530,0.004,,
531,0.004,,
532,0.003,,
533,0.003,,
534,0.004,,
535,0.005,,
536,0.005,,
537,0.005,,
538,0.005,,
539,0.004,,
540,0.003,,
541,0.002,,
542,0.004,,
543,0.005,,
544,0.005,,
545,0.005,,
546,0.004,,
547,0.004,,
548,0.004,,
549,0.004,,
550,0.003,,
551,0.003,,
552,0.003,,
553,0.001,,
554,0.001,,
555,0.002,,
556,0.004,,
557,0.004,,
558,0.003,,
559,0.002,,
560,0.003,,
561,0.004,,
562,0.005,,
563,0.003,,
564,0.003,,
565,0.003,,
566,0.003,,
567,0.002,,
568,0.001,,
569,0.003,,
570,0.004,,
571,0.003,,
572,0.002,,
573,0.001,,
574,0.003,,
575,0.004,,
576,0.004,,
577,0.003,,
578,0.003,,
579,0.005,,
580,0.004,,
581,0.002,,
582,0.002,,
583,0.003,,
584,0.003,,
585,0.002,,
586,0.001,,
587,0.002,,
588,0.003,,
589,0.004,,
590,0.003,,
591,0.003,,
592,0.003,,
593,0.003,,
594,0.002,,
595,0.002,,
596,0.003,,
597,0.005,,
598,0.006,,
599,0.006,,
600,0.002,,
601,0.001,,
602,0,,
603,0.001,,
604,0.003,,
605,0.003,,
606,0.002,,
607,0.001,,
608,0.001,,
609,0.003,,
610,0.003,,
611,0.002,,
612,0.002,,
613,0.001,,
614,0.001,,
615,0.001,,
616,0.003,,
617,0.002,,
618,0.002,,
619,0.001,,
620,0.001,,
621,0.002,,
622,0.002,,
623,0.002,,
624,0.002,,
625,0.003,,
626,0.004,,
627,0.002,,
628,0.001,,
629,0,,
630,0.001,,
631,0.002,,
632,0.003,,
633,0.002,,
634,0.001,,
635,0,,
636,0,,
637,0,,
638,0.001,,
639,0.002,,
640,0.003,,
641,0.001,,
642,0.001,,
643,0.002,,
644,0.002,,
645,0.001,,
646,0.001,,
647,0.002,,
648,0.002,,
649,0.002,,
650,0.002,,
651,0.001,,
652,-0.001,,
653,-0.002,,
654,-0.001,,
655,0.002,,
656,0.003,,
657,0.004,,
658,0.002,,
659,0,,
660,0,,
661,0.001,,
662,0.003,,
663,0.003,,
664,0.002,,
665,0.002,,
666,0.003,,
667,0.003,,
668,0.001,,
669,0.001,,
670,0.001,,
671,0,,
672,-0.002,,
673,0,,
674,0.002,,
675,0.003,,
676,0.003,,
677,0.003,,
678,0.002,,
679,0.002,,
680,0.002,,
681,0.002,,
682,0.001,,
683,0,,
684,-0.001,,
685,0.001,,
686,0.003,,
687,0.004,,
688,0.002,,
689,0.002,,
690,0.002,,
691,0.003,,
692,0.002,,
693,0.001,,
694,-0.001,,
695,-0.001,,
696,-0.001,,
697,0,,
698,0.001,,
699,0.002,,
700,0.001,,
701,-0.001,,
702,-0.002,,
703,0,,
704,0.002,,
705,0.002,,
706,0.001,,
707,0,,
708,0.001,,
709,0.001,,
710,0.002,,
711,0.003,,
712,0.003,,
713,0.002,,
714,0,,
715,-0.002,,
716,-0.001,,
717,0,,
718,0.002,,
719,0.003,,
720,0.004,,
721,0.002,,
722,0,,
723,-0.001,,
724,0,,
725,-0.002,,
726,-0.001,,
727,-0.001,,
728,0,,
729,0.002,,
730,0.002,,
731,0.002,,
732,0.001,,
733,0.002,,
734,0.002,,
735,0.001,,
736,-0.001,,
737,0.002,,
738,0.002,,
739,0.001,,
740,0,,
741,0,,
742,0.001,,
743,-0.003,,
744,-0.001,,
745,0,,
746,0.003,,
747,-0.003,,
748,-0.004,,
749,-0.001,,
750,0,,
751,-0.001,,
752,0.001,,
753,0.003,,
754,0.001,,
755,-0.001,,
756,0,,
757,0.004,,
758,0.002,,
759,0.001,,
760,0.001,,
761,0,,
762,0.001,,
763,0.002,,
764,0.002,,
765,0,,
766,0.002,,
767,0.003,,
768,0.004,,
769,0.001,,
770,0.002,,
771,0.004,,
772,0.003,,
773,0.002,,
774,0,,
775,-0.001,,
776,0,,
777,0.003,,
778,0.003,,
779,0.001,,
780,0.001,,
781,0.001,,
782,0.002,,
783,-0.002,,
784,-0.001,,
785,0,,
786,0,,
787,-0.001,,
788,0,,
789,0.001,,
790,0.002,,
791,0.003,,
792,0,,
793,0,,
794,0.001,,
795,0.001,,
796,0.002,,
797,0.005,,
798,0.007,,
799,0.003,,
800,0.002,,
801,-0.002,,
802,0.003,,
803,0.001,,
804,0.004,,
805,0.002,,
806,0,,
807,-0.008,,
808,-0.004,,
809,-0.003,,
810,-0.004,,
811,-0.005,,
812,-0.001,,
813,0,,
814,0,,
815,0.005,,
816,0.006,,
817,0.004,,
818,0.001,,
819,0.001,,
820,-0.001,,
821,0,,
822,0.002,,
823,0.002,,
824,0,,
825,0.001,,
826,0.002,,
827,0.004,,
828,0.004,,
829,0.006,,
830,0.007,,
831,0.006,,
832,0.001,,
833,0.001,,
834,0.002,,
835,0.006,,
836,0.006,,
837,0.004,,
838,0.004,,
839,0.002,,
840,0.007,,
