Wavelength (nm),Absorbance,Title,Time
190,0.518,bod14_1jul,7/2/2014 1:46:56 PM
191,0.39,,
192,0.033,,
193,-0.44,,
194,-0.67,,
195,-0.394,,
196,-0.039,,
197,0.193,,
198,0.13,,
199,0.012,,
200,-0.148,,
201,-0.006,,
202,0.147,,
203,0.121,,
204,-0.154,,
205,-0.678,,
206,-0.719,,
207,-0.64,,
208,-0.349,,
209,-0.277,,
210,-0.345,,
211,-0.027,,
212,0.32,,
213,0.38,,
214,0.018,,
215,-0.241,,
216,-0.188,,
217,0.013,,
218,0.098,,
219,0.163,,
220,0.179,,
221,0.151,,
222,0.14,,
223,0.137,,
224,0.151,,
225,0.148,,
226,0.144,,
227,0.148,,
228,0.149,,
229,0.149,,
230,0.143,,
231,0.139,,
232,0.134,,
233,0.129,,
234,0.128,,
235,0.127,,
236,0.126,,
237,0.123,,
238,0.119,,
239,0.116,,
240,0.115,,
241,0.114,,
242,0.116,,
243,0.116,,
244,0.112,,
245,0.111,,
246,0.109,,
247,0.11,,
248,0.109,,
249,0.106,,
250,0.104,,
251,0.103,,
252,0.103,,
253,0.103,,
254,0.103,,
255,0.101,,
256,0.099,,
257,0.098,,
258,0.097,,
259,0.098,,
260,0.097,,
261,0.096,,
262,0.094,,
263,0.093,,
264,0.092,,
265,0.092,,
266,0.091,,
267,0.089,,
268,0.088,,
269,0.087,,
270,0.087,,
271,0.086,,
272,0.085,,
273,0.083,,
274,0.081,,
275,0.082,,
276,0.081,,
277,0.08,,
278,0.078,,
279,0.076,,
280,0.076,,
281,0.074,,
282,0.073,,
283,0.072,,
284,0.07,,
285,0.068,,
286,0.068,,
287,0.067,,
288,0.066,,
289,0.064,,
290,0.063,,
291,0.063,,
292,0.063,,
293,0.062,,
294,0.061,,
295,0.061,,
296,0.062,,
297,0.061,,
298,0.06,,
299,0.058,,
300,0.056,,
301,0.055,,
302,0.054,,
303,0.053,,
304,0.051,,
305,0.05,,
306,0.05,,
307,0.05,,
308,0.049,,
309,0.048,,
310,0.048,,
311,0.048,,
312,0.046,,
313,0.045,,
314,0.045,,
315,0.045,,
316,0.044,,
317,0.042,,
318,0.042,,
319,0.042,,
320,0.041,,
321,0.041,,
322,0.04,,
323,0.039,,
324,0.039,,
325,0.039,,
326,0.038,,
327,0.036,,
328,0.036,,
329,0.037,,
330,0.038,,
331,0.037,,
332,0.035,,
333,0.034,,
334,0.034,,
335,0.033,,
336,0.033,,
337,0.032,,
338,0.032,,
339,0.032,,
340,0.031,,
341,0.031,,
342,0.03,,
343,0.029,,
344,0.028,,
345,0.028,,
346,0.029,,
347,0.029,,
348,0.029,,
349,0.028,,
350,0.027,,
351,0.026,,
352,0.025,,
353,0.024,,
354,0.024,,
355,0.024,,
356,0.024,,
357,0.024,,
358,0.024,,
359,0.024,,
360,0.022,,
361,0.022,,
362,0.021,,
363,0.021,,
364,0.021,,
365,0.02,,
366,0.02,,
367,0.02,,
368,0.02,,
369,0.02,,
370,0.02,,
371,0.019,,
372,0.018,,
373,0.018,,
374,0.018,,
375,0.017,,
376,0.017,,
377,0.018,,
378,0.018,,
379,0.017,,
380,0.016,,
381,0.017,,
382,0.016,,
383,0.015,,
384,0.015,,
385,0.016,,
386,0.015,,
387,0.014,,
388,0.013,,
389,0.014,,
390,0.014,,
391,0.014,,
392,0.014,,
393,0.014,,
394,0.014,,
395,0.013,,
396,0.012,,
397,0.011,,
398,0.011,,
399,0.012,,
400,0.013,,
401,0.012,,
402,0.012,,
403,0.011,,
404,0.011,,
405,0.01,,
406,0.01,,
407,0.01,,
408,0.01,,
409,0.011,,
410,0.011,,
411,0.01,,
412,0.01,,
413,0.01,,
414,0.009,,
415,0.01,,
416,0.009,,
417,0.009,,
418,0.009,,
419,0.008,,
420,0.007,,
421,0.007,,
422,0.008,,
423,0.009,,
424,0.009,,
425,0.008,,
426,0.008,,
427,0.008,,
428,0.007,,
429,0.007,,
430,0.007,,
431,0.006,,
432,0.006,,
433,0.005,,
434,0.005,,
435,0.006,,
436,0.007,,
437,0.007,,
438,0.007,,
439,0.006,,
440,0.007,,
441,0.007,,
442,0.007,,
443,0.006,,
444,0.006,,
445,0.006,,
446,0.006,,
447,0.006,,
448,0.006,,
449,0.006,,
450,0.005,,
451,0.006,,
452,0.005,,
453,0.006,,
454,0.005,,
455,0.004,,
456,0.004,,
457,0.004,,
458,0.005,,
459,0.005,,
460,0.005,,
461,0.005,,
462,0.004,,
463,0.004,,
464,0.004,,
465,0.003,,
466,0.003,,
467,0.004,,
468,0.004,,
469,0.003,,
470,0.003,,
471,0.003,,
472,0.004,,
473,0.003,,
474,0.003,,
475,0.003,,
476,0.004,,
477,0.004,,
478,0.004,,
479,0.003,,
480,0.004,,
481,0.004,,
482,0.004,,
483,0.004,,
484,0.004,,
485,0.004,,
486,0.004,,
487,0.004,,
488,0.003,,
489,0.003,,
490,0.003,,
491,0.004,,
492,0.004,,
493,0.004,,
494,0.002,,
495,0.002,,
496,0.002,,
497,0.002,,
498,0.001,,
499,0.001,,
500,0.002,,
501,0.002,,
502,0.003,,
503,0.003,,
504,0.002,,
505,0.001,,
506,0,,
507,0.001,,
508,0.002,,
509,0.004,,
510,0.005,,
511,0.005,,
512,0.003,,
513,0.002,,
514,0.003,,
515,0.003,,
516,0.002,,
517,0.002,,
518,0.002,,
519,0.003,,
520,0.003,,
521,0.003,,
522,0.002,,
523,0,,
524,0,,
525,0,,
526,0.001,,
527,0.002,,
528,0.003,,
529,0.004,,
530,0.003,,
531,0.002,,
532,0.001,,
533,0.002,,
534,0.003,,
535,0.003,,
536,0.003,,
537,0.003,,
538,0.003,,
539,0.003,,
540,0.001,,
541,0.001,,
542,0.002,,
543,0.004,,
544,0.004,,
545,0.003,,
546,0.002,,
547,0.002,,
548,0.002,,
549,0.003,,
550,0.002,,
551,0.002,,
552,0.001,,
553,0,,
554,-0.001,,
555,0,,
556,0.001,,
557,0.002,,
558,0.002,,
559,0,,
560,0.001,,
561,0.001,,
562,0.003,,
563,0.002,,
564,0.001,,
565,0.001,,
566,0.001,,
567,0,,
568,0,,
569,0.001,,
570,0.002,,
571,0.002,,
572,0.001,,
573,0,,
574,0.002,,
575,0.002,,
576,0.002,,
577,0.001,,
578,0.001,,
579,0.002,,
580,0.001,,
581,0.001,,
582,0.002,,
583,0.003,,
584,0.002,,
585,0.001,,
586,0,,
587,0.001,,
588,0.001,,
589,0.001,,
590,0.001,,
591,0.001,,
592,0.001,,
593,-0.001,,
594,0,,
595,0.001,,
596,0.002,,
597,0.004,,
598,0.004,,
599,0.004,,
600,0.002,,
601,0,,
602,0,,
603,-0.001,,
604,0.001,,
605,0.001,,
606,0.002,,
607,0.001,,
608,0.001,,
609,0.001,,
610,0.001,,
611,0.001,,
612,0.002,,
613,0,,
614,-0.001,,
615,0.001,,
616,0.003,,
617,0.002,,
618,0.001,,
619,0.001,,
620,0,,
621,0.001,,
622,0.001,,
623,0.002,,
624,0.001,,
625,0.001,,
626,0.002,,
627,0.001,,
628,0,,
629,-0.001,,
630,0,,
631,0.001,,
632,0.002,,
633,0.001,,
634,0,,
635,0,,
636,0,,
637,-0.001,,
638,0,,
639,0.001,,
640,0.001,,
641,0,,
642,0,,
643,0.001,,
644,0.001,,
645,0.001,,
646,0,,
647,0,,
648,0,,
649,0.001,,
650,0.001,,
651,0,,
652,-0.002,,
653,-0.002,,
654,-0.002,,
655,0.001,,
656,0.002,,
657,0.003,,
658,0,,
659,-0.002,,
660,-0.001,,
661,0,,
662,0.002,,
663,0.001,,
664,0,,
665,0,,
666,0.001,,
667,0.001,,
668,0.002,,
669,0.002,,
670,0.001,,
671,-0.002,,
672,-0.002,,
673,0.001,,
674,0.003,,
675,0.002,,
676,0.002,,
677,0.002,,
678,0.002,,
679,0,,
680,0,,
681,0.001,,
682,0.001,,
683,0,,
684,-0.001,,
685,0.001,,
686,0.002,,
687,0.002,,
688,0.001,,
689,0,,
690,0.001,,
691,0.001,,
692,0.001,,
693,0,,
694,-0.002,,
695,-0.001,,
696,-0.001,,
697,0,,
698,0.001,,
699,0.002,,
700,0.001,,
701,-0.001,,
702,-0.002,,
703,0,,
704,0.001,,
705,0.001,,
706,0.002,,
707,0.001,,
708,0.001,,
709,-0.002,,
710,-0.001,,
711,0.001,,
712,0.002,,
713,0.001,,
714,0.001,,
715,0,,
716,0,,
717,0,,
718,0.001,,
719,0.001,,
720,0.001,,
721,-0.001,,
722,0,,
723,-0.001,,
724,0,,
725,-0.001,,
726,-0.002,,
727,-0.002,,
728,-0.001,,
729,0.001,,
730,0.001,,
731,0.001,,
732,-0.001,,
733,0,,
734,0.001,,
735,0.001,,
736,0,,
737,0.002,,
738,0.002,,
739,0,,
740,-0.001,,
741,0,,
742,0,,
743,-0.002,,
744,-0.001,,
745,0,,
746,0.001,,
747,-0.004,,
748,-0.005,,
749,-0.002,,
750,0,,
751,0.001,,
752,0.001,,
753,0,,
754,-0.004,,
755,-0.003,,
756,0,,
757,0.003,,
758,0.002,,
759,0.001,,
760,0.001,,
761,0.001,,
762,0.001,,
763,0.001,,
764,0,,
765,0.001,,
766,0.003,,
767,0.003,,
768,0.003,,
769,0,,
770,0.001,,
771,0.002,,
772,0.001,,
773,0,,
774,-0.001,,
775,0,,
776,0,,
777,0.002,,
778,0.002,,
779,0,,
780,-0.002,,
781,-0.003,,
782,0,,
783,0,,
784,-0.001,,
785,-0.003,,
786,-0.004,,
787,-0.004,,
788,-0.005,,
789,-0.003,,
790,0.002,,
791,0.005,,
792,0,,
793,-0.003,,
794,-0.002,,
795,-0.002,,
796,-0.001,,
797,0.001,,
798,0.004,,
799,0.001,,
800,0.002,,
801,0,,
802,0.002,,
803,0.002,,
804,0.003,,
805,0.003,,
806,-0.001,,
807,-0.006,,
808,-0.005,,
809,-0.005,,
810,-0.008,,
811,-0.004,,
812,-0.001,,
813,0.001,,
814,0.002,,
815,0.005,,
816,0.002,,
817,0.002,,
818,0,,
819,0.002,,
820,-0.001,,
821,-0.001,,
822,0,,
823,0.003,,
824,0,,
825,0,,
826,0.004,,
827,0.005,,
828,0.004,,
829,0.006,,
830,0.006,,
831,0.002,,
832,-0.004,,
833,-0.003,,
834,-0.002,,
835,0.004,,
836,0.004,,
837,0.004,,
838,0,,
839,0,,
840,0.004,,
