Wavelength (nm),Absorbance,Title,Time
190,0.193,bod3_1jul,7/2/2014 1:31:54 PM
191,0.22,,
192,-0.105,,
193,-0.36,,
194,-0.507,,
195,-0.14,,
196,0.238,,
197,0.189,,
198,-0.107,,
199,-0.229,,
200,-0.204,,
201,-0.005,,
202,0.26,,
203,0.116,,
204,0.251,,
205,-0.226,,
206,-0.306,,
207,-0.489,,
208,-0.52,,
209,-0.235,,
210,-0.207,,
211,0.062,,
212,0.276,,
213,0.445,,
214,0.176,,
215,-0.068,,
216,-0.153,,
217,0.063,,
218,0.235,,
219,0.165,,
220,0.193,,
221,0.179,,
222,0.146,,
223,0.152,,
224,0.167,,
225,0.163,,
226,0.159,,
227,0.161,,
228,0.168,,
229,0.169,,
230,0.164,,
231,0.158,,
232,0.153,,
233,0.149,,
234,0.146,,
235,0.143,,
236,0.14,,
237,0.138,,
238,0.136,,
239,0.134,,
240,0.133,,
241,0.132,,
242,0.132,,
243,0.131,,
244,0.128,,
245,0.126,,
246,0.126,,
247,0.127,,
248,0.125,,
249,0.123,,
250,0.121,,
251,0.12,,
252,0.119,,
253,0.117,,
254,0.116,,
255,0.115,,
256,0.115,,
257,0.114,,
258,0.113,,
259,0.112,,
260,0.111,,
261,0.111,,
262,0.111,,
263,0.11,,
264,0.109,,
265,0.108,,
266,0.107,,
267,0.105,,
268,0.103,,
269,0.102,,
270,0.101,,
271,0.1,,
272,0.1,,
273,0.098,,
274,0.097,,
275,0.097,,
276,0.095,,
277,0.094,,
278,0.093,,
279,0.092,,
280,0.09,,
281,0.088,,
282,0.087,,
283,0.086,,
284,0.084,,
285,0.083,,
286,0.082,,
287,0.081,,
288,0.08,,
289,0.078,,
290,0.077,,
291,0.078,,
292,0.077,,
293,0.076,,
294,0.074,,
295,0.074,,
296,0.074,,
297,0.074,,
298,0.073,,
299,0.07,,
300,0.069,,
301,0.067,,
302,0.068,,
303,0.067,,
304,0.065,,
305,0.064,,
306,0.063,,
307,0.063,,
308,0.062,,
309,0.062,,
310,0.061,,
311,0.06,,
312,0.059,,
313,0.058,,
314,0.059,,
315,0.058,,
316,0.057,,
317,0.056,,
318,0.055,,
319,0.055,,
320,0.054,,
321,0.054,,
322,0.052,,
323,0.051,,
324,0.05,,
325,0.05,,
326,0.05,,
327,0.049,,
328,0.05,,
329,0.05,,
330,0.05,,
331,0.049,,
332,0.048,,
333,0.047,,
334,0.047,,
335,0.046,,
336,0.045,,
337,0.044,,
338,0.044,,
339,0.044,,
340,0.042,,
341,0.042,,
342,0.042,,
343,0.041,,
344,0.04,,
345,0.039,,
346,0.04,,
347,0.04,,
348,0.04,,
349,0.04,,
350,0.039,,
351,0.038,,
352,0.037,,
353,0.036,,
354,0.036,,
355,0.035,,
356,0.035,,
357,0.035,,
358,0.035,,
359,0.035,,
360,0.034,,
361,0.033,,
362,0.032,,
363,0.032,,
364,0.032,,
365,0.031,,
366,0.03,,
367,0.031,,
368,0.031,,
369,0.03,,
370,0.03,,
371,0.029,,
372,0.029,,
373,0.029,,
374,0.028,,
375,0.027,,
376,0.028,,
377,0.027,,
378,0.027,,
379,0.026,,
380,0.026,,
381,0.027,,
382,0.025,,
383,0.024,,
384,0.023,,
385,0.024,,
386,0.024,,
387,0.024,,
388,0.023,,
389,0.024,,
390,0.024,,
391,0.023,,
392,0.023,,
393,0.023,,
394,0.023,,
395,0.022,,
396,0.02,,
397,0.019,,
398,0.019,,
399,0.02,,
400,0.02,,
401,0.02,,
402,0.02,,
403,0.02,,
404,0.019,,
405,0.018,,
406,0.018,,
407,0.018,,
408,0.019,,
409,0.019,,
410,0.02,,
411,0.018,,
412,0.017,,
413,0.017,,
414,0.018,,
415,0.018,,
416,0.017,,
417,0.016,,
418,0.016,,
419,0.016,,
420,0.015,,
421,0.015,,
422,0.015,,
423,0.015,,
424,0.015,,
425,0.015,,
426,0.015,,
427,0.015,,
428,0.014,,
429,0.014,,
430,0.014,,
431,0.014,,
432,0.013,,
433,0.012,,
434,0.012,,
435,0.013,,
436,0.013,,
437,0.013,,
438,0.014,,
439,0.013,,
440,0.013,,
441,0.013,,
442,0.012,,
443,0.012,,
444,0.012,,
445,0.012,,
446,0.012,,
447,0.011,,
448,0.011,,
449,0.011,,
450,0.011,,
451,0.011,,
452,0.011,,
453,0.011,,
454,0.01,,
455,0.01,,
456,0.01,,
457,0.009,,
458,0.009,,
459,0.01,,
460,0.01,,
461,0.01,,
462,0.01,,
463,0.01,,
464,0.01,,
465,0.01,,
466,0.009,,
467,0.009,,
468,0.009,,
469,0.009,,
470,0.008,,
471,0.008,,
472,0.009,,
473,0.008,,
474,0.008,,
475,0.008,,
476,0.009,,
477,0.009,,
478,0.008,,
479,0.008,,
480,0.009,,
481,0.008,,
482,0.008,,
483,0.007,,
484,0.008,,
485,0.009,,
486,0.009,,
487,0.009,,
488,0.007,,
489,0.007,,
490,0.007,,
491,0.008,,
492,0.009,,
493,0.007,,
494,0.007,,
495,0.007,,
496,0.007,,
497,0.007,,
498,0.006,,
499,0.006,,
500,0.007,,
501,0.007,,
502,0.008,,
503,0.008,,
504,0.007,,
505,0.006,,
506,0.004,,
507,0.005,,
508,0.006,,
509,0.008,,
510,0.008,,
511,0.008,,
512,0.007,,
513,0.006,,
514,0.007,,
515,0.007,,
516,0.006,,
517,0.006,,
518,0.006,,
519,0.006,,
520,0.006,,
521,0.006,,
522,0.006,,
523,0.004,,
524,0.003,,
525,0.003,,
526,0.004,,
527,0.005,,
528,0.006,,
529,0.007,,
530,0.006,,
531,0.006,,
532,0.005,,
533,0.005,,
534,0.005,,
535,0.006,,
536,0.006,,
537,0.007,,
538,0.006,,
539,0.006,,
540,0.005,,
541,0.004,,
542,0.005,,
543,0.006,,
544,0.006,,
545,0.005,,
546,0.005,,
547,0.004,,
548,0.004,,
549,0.006,,
550,0.006,,
551,0.006,,
552,0.005,,
553,0.003,,
554,0.002,,
555,0.003,,
556,0.004,,
557,0.004,,
558,0.004,,
559,0.003,,
560,0.004,,
561,0.005,,
562,0.005,,
563,0.004,,
564,0.004,,
565,0.004,,
566,0.004,,
567,0.003,,
568,0.003,,
569,0.004,,
570,0.003,,
571,0.003,,
572,0.003,,
573,0.002,,
574,0.004,,
575,0.005,,
576,0.004,,
577,0.004,,
578,0.004,,
579,0.005,,
580,0.004,,
581,0.003,,
582,0.004,,
583,0.005,,
584,0.004,,
585,0.003,,
586,0.002,,
587,0.004,,
588,0.003,,
589,0.005,,
590,0.005,,
591,0.006,,
592,0.004,,
593,0.003,,
594,0.003,,
595,0.004,,
596,0.005,,
597,0.006,,
598,0.007,,
599,0.006,,
600,0.003,,
601,0.001,,
602,0.001,,
603,0.002,,
604,0.003,,
605,0.004,,
606,0.004,,
607,0.003,,
608,0.002,,
609,0.003,,
610,0.003,,
611,0.003,,
612,0.002,,
613,0.001,,
614,0.001,,
615,0.002,,
616,0.003,,
617,0.002,,
618,0.002,,
619,0.002,,
620,0.002,,
621,0.003,,
622,0.003,,
623,0.003,,
624,0.002,,
625,0.003,,
626,0.004,,
627,0.004,,
628,0.003,,
629,0.001,,
630,0.002,,
631,0.003,,
632,0.004,,
633,0.002,,
634,0.001,,
635,0.001,,
636,0.002,,
637,0.001,,
638,0.002,,
639,0.002,,
640,0.002,,
641,0.002,,
642,0.002,,
643,0.003,,
644,0.003,,
645,0.003,,
646,0.002,,
647,0.002,,
648,0.001,,
649,0.001,,
650,0.002,,
651,0.001,,
652,0,,
653,0,,
654,0.001,,
655,0.002,,
656,0.002,,
657,0.003,,
658,0.003,,
659,0,,
660,0.001,,
661,0.001,,
662,0.003,,
663,0.002,,
664,0.002,,
665,0.002,,
666,0.003,,
667,0.003,,
668,0.003,,
669,0.002,,
670,0.002,,
671,0.001,,
672,0,,
673,0.002,,
674,0.004,,
675,0.004,,
676,0.004,,
677,0.004,,
678,0.003,,
679,0.002,,
680,0.002,,
681,0.003,,
682,0.002,,
683,0,,
684,0,,
685,0.002,,
686,0.003,,
687,0.003,,
688,0.002,,
689,0.001,,
690,0.002,,
691,0.002,,
692,0.001,,
693,0.001,,
694,0,,
695,0,,
696,-0.001,,
697,0,,
698,0.001,,
699,0.002,,
700,0.001,,
701,-0.001,,
702,-0.001,,
703,0.001,,
704,0.001,,
705,0.001,,
706,0.002,,
707,0.002,,
708,0.002,,
709,0.001,,
710,0.002,,
711,0.004,,
712,0.004,,
713,0.003,,
714,0.001,,
715,0,,
716,0,,
717,0.001,,
718,0.002,,
719,0.004,,
720,0.004,,
721,0.002,,
722,0,,
723,-0.001,,
724,0.001,,
725,0,,
726,0.001,,
727,0.001,,
728,0.002,,
729,0.003,,
730,0.002,,
731,0.002,,
732,-0.001,,
733,-0.001,,
734,0.001,,
735,0.002,,
736,0.001,,
737,0.003,,
738,0.003,,
739,0.001,,
740,-0.001,,
741,0,,
742,0.001,,
743,-0.001,,
744,0.001,,
745,0.002,,
746,0.003,,
747,-0.002,,
748,-0.002,,
749,0,,
750,0,,
751,-0.001,,
752,0.001,,
753,0.002,,
754,0,,
755,-0.001,,
756,0,,
757,0.002,,
758,0.002,,
759,0.002,,
760,0.002,,
761,0.001,,
762,0.002,,
763,0.003,,
764,0.003,,
765,0.001,,
766,0.002,,
767,0.003,,
768,0.002,,
769,-0.001,,
770,0,,
771,0,,
772,0.001,,
773,0.002,,
774,0.002,,
775,0.002,,
776,0.001,,
777,0.002,,
778,0.004,,
779,0.001,,
780,-0.001,,
781,-0.002,,
782,0,,
783,-0.002,,
784,-0.002,,
785,-0.001,,
786,-0.001,,
787,-0.001,,
788,-0.001,,
789,0.001,,
790,0.001,,
791,0.002,,
792,0.001,,
793,-0.001,,
794,-0.002,,
795,-0.004,,
796,-0.001,,
797,0.004,,
798,0.008,,
799,0.002,,
800,0,,
801,0,,
802,0.003,,
803,0.002,,
804,0.005,,
805,0.003,,
806,-0.002,,
807,-0.008,,
808,-0.004,,
809,-0.006,,
810,-0.005,,
811,-0.007,,
812,-0.005,,
813,-0.001,,
814,0.004,,
815,0.009,,
816,0.006,,
817,0.003,,
818,0,,
819,0.003,,
820,0.002,,
821,0.001,,
822,0.003,,
823,0.004,,
824,0.001,,
825,0.001,,
826,0.002,,
827,0.003,,
828,0.003,,
829,0.005,,
830,0.005,,
831,0.002,,
832,-0.002,,
833,0.001,,
834,0.003,,
835,0.005,,
836,0.006,,
837,0.006,,
838,0.005,,
839,0.003,,
840,0.011,,
