Wavelength (nm),Absorbance,Title,Time
190,0.228,bod8_1jul,7/2/2014 1:38:35 PM
191,0.241,,
192,-0.053,,
193,-0.554,,
194,-0.718,,
195,-0.486,,
196,-0.052,,
197,0.056,,
198,-0.206,,
199,-0.319,,
200,-0.51,,
201,-0.369,,
202,-0.032,,
203,0.005,,
204,0.202,,
205,-0.106,,
206,-0.333,,
207,-0.478,,
208,-0.464,,
209,-0.34,,
210,-0.226,,
211,-0.145,,
212,-0.066,,
213,-0.04,,
214,-0.07,,
215,-0.105,,
216,-0.019,,
217,0.036,,
218,0.029,,
219,0.117,,
220,0.165,,
221,0.177,,
222,0.164,,
223,0.174,,
224,0.188,,
225,0.193,,
226,0.19,,
227,0.187,,
228,0.185,,
229,0.189,,
230,0.186,,
231,0.18,,
232,0.176,,
233,0.171,,
234,0.171,,
235,0.17,,
236,0.167,,
237,0.165,,
238,0.162,,
239,0.158,,
240,0.155,,
241,0.154,,
242,0.155,,
243,0.156,,
244,0.154,,
245,0.152,,
246,0.151,,
247,0.151,,
248,0.149,,
249,0.146,,
250,0.145,,
251,0.145,,
252,0.143,,
253,0.141,,
254,0.142,,
255,0.141,,
256,0.14,,
257,0.137,,
258,0.135,,
259,0.136,,
260,0.134,,
261,0.135,,
262,0.134,,
263,0.132,,
264,0.131,,
265,0.131,,
266,0.129,,
267,0.127,,
268,0.125,,
269,0.124,,
270,0.124,,
271,0.122,,
272,0.121,,
273,0.12,,
274,0.118,,
275,0.118,,
276,0.116,,
277,0.116,,
278,0.114,,
279,0.113,,
280,0.111,,
281,0.109,,
282,0.107,,
283,0.106,,
284,0.104,,
285,0.103,,
286,0.102,,
287,0.101,,
288,0.1,,
289,0.098,,
290,0.096,,
291,0.096,,
292,0.096,,
293,0.094,,
294,0.093,,
295,0.092,,
296,0.093,,
297,0.092,,
298,0.091,,
299,0.088,,
300,0.086,,
301,0.086,,
302,0.085,,
303,0.084,,
304,0.082,,
305,0.081,,
306,0.08,,
307,0.08,,
308,0.079,,
309,0.079,,
310,0.078,,
311,0.078,,
312,0.076,,
313,0.075,,
314,0.074,,
315,0.074,,
316,0.073,,
317,0.072,,
318,0.072,,
319,0.071,,
320,0.071,,
321,0.07,,
322,0.068,,
323,0.066,,
324,0.065,,
325,0.065,,
326,0.065,,
327,0.064,,
328,0.064,,
329,0.064,,
330,0.064,,
331,0.063,,
332,0.062,,
333,0.062,,
334,0.061,,
335,0.059,,
336,0.059,,
337,0.058,,
338,0.058,,
339,0.058,,
340,0.057,,
341,0.056,,
342,0.056,,
343,0.055,,
344,0.054,,
345,0.052,,
346,0.053,,
347,0.054,,
348,0.054,,
349,0.052,,
350,0.051,,
351,0.05,,
352,0.049,,
353,0.048,,
354,0.048,,
355,0.047,,
356,0.048,,
357,0.047,,
358,0.047,,
359,0.047,,
360,0.046,,
361,0.045,,
362,0.044,,
363,0.043,,
364,0.043,,
365,0.042,,
366,0.041,,
367,0.042,,
368,0.042,,
369,0.042,,
370,0.042,,
371,0.04,,
372,0.04,,
373,0.039,,
374,0.039,,
375,0.038,,
376,0.038,,
377,0.037,,
378,0.036,,
379,0.037,,
380,0.036,,
381,0.036,,
382,0.035,,
383,0.033,,
384,0.032,,
385,0.032,,
386,0.032,,
387,0.032,,
388,0.032,,
389,0.032,,
390,0.032,,
391,0.032,,
392,0.032,,
393,0.032,,
394,0.032,,
395,0.03,,
396,0.029,,
397,0.027,,
398,0.026,,
399,0.026,,
400,0.026,,
401,0.026,,
402,0.027,,
403,0.027,,
404,0.026,,
405,0.026,,
406,0.025,,
407,0.026,,
408,0.026,,
409,0.026,,
410,0.026,,
411,0.025,,
412,0.024,,
413,0.024,,
414,0.024,,
415,0.025,,
416,0.023,,
417,0.023,,
418,0.023,,
419,0.022,,
420,0.021,,
421,0.02,,
422,0.02,,
423,0.021,,
424,0.021,,
425,0.02,,
426,0.02,,
427,0.02,,
428,0.019,,
429,0.018,,
430,0.019,,
431,0.019,,
432,0.018,,
433,0.017,,
434,0.017,,
435,0.018,,
436,0.019,,
437,0.018,,
438,0.018,,
439,0.017,,
440,0.017,,
441,0.017,,
442,0.016,,
443,0.016,,
444,0.016,,
445,0.016,,
446,0.016,,
447,0.015,,
448,0.015,,
449,0.015,,
450,0.014,,
451,0.014,,
452,0.013,,
453,0.014,,
454,0.013,,
455,0.013,,
456,0.013,,
457,0.013,,
458,0.013,,
459,0.013,,
460,0.013,,
461,0.013,,
462,0.013,,
463,0.013,,
464,0.013,,
465,0.012,,
466,0.012,,
467,0.012,,
468,0.012,,
469,0.012,,
470,0.011,,
471,0.011,,
472,0.012,,
473,0.011,,
474,0.011,,
475,0.01,,
476,0.01,,
477,0.011,,
478,0.01,,
479,0.01,,
480,0.011,,
481,0.011,,
482,0.01,,
483,0.01,,
484,0.01,,
485,0.011,,
486,0.01,,
487,0.01,,
488,0.009,,
489,0.009,,
490,0.009,,
491,0.009,,
492,0.009,,
493,0.009,,
494,0.008,,
495,0.009,,
496,0.009,,
497,0.009,,
498,0.008,,
499,0.007,,
500,0.009,,
501,0.009,,
502,0.01,,
503,0.009,,
504,0.008,,
505,0.007,,
506,0.006,,
507,0.006,,
508,0.007,,
509,0.009,,
510,0.01,,
511,0.01,,
512,0.009,,
513,0.008,,
514,0.008,,
515,0.008,,
516,0.007,,
517,0.007,,
518,0.006,,
519,0.007,,
520,0.008,,
521,0.008,,
522,0.007,,
523,0.005,,
524,0.004,,
525,0.005,,
526,0.005,,
527,0.005,,
528,0.006,,
529,0.006,,
530,0.006,,
531,0.006,,
532,0.005,,
533,0.005,,
534,0.005,,
535,0.006,,
536,0.006,,
537,0.007,,
538,0.007,,
539,0.007,,
540,0.005,,
541,0.004,,
542,0.005,,
543,0.006,,
544,0.007,,
545,0.005,,
546,0.004,,
547,0.003,,
548,0.003,,
549,0.005,,
550,0.005,,
551,0.005,,
552,0.004,,
553,0.003,,
554,0.003,,
555,0.003,,
556,0.003,,
557,0.004,,
558,0.003,,
559,0.003,,
560,0.003,,
561,0.004,,
562,0.005,,
563,0.004,,
564,0.004,,
565,0.004,,
566,0.003,,
567,0.003,,
568,0.003,,
569,0.003,,
570,0.003,,
571,0.004,,
572,0.004,,
573,0.003,,
574,0.004,,
575,0.004,,
576,0.004,,
577,0.003,,
578,0.003,,
579,0.003,,
580,0.003,,
581,0.002,,
582,0.004,,
583,0.005,,
584,0.004,,
585,0.003,,
586,0.001,,
587,0.003,,
588,0.003,,
589,0.003,,
590,0.003,,
591,0.004,,
592,0.004,,
593,0.003,,
594,0.002,,
595,0.003,,
596,0.004,,
597,0.005,,
598,0.006,,
599,0.005,,
600,0.002,,
601,0,,
602,0,,
603,0,,
604,0.002,,
605,0.002,,
606,0.003,,
607,0.002,,
608,0.001,,
609,0.002,,
610,0.002,,
611,0.002,,
612,0.003,,
613,0.001,,
614,0.001,,
615,0.001,,
616,0.002,,
617,0.002,,
618,0.001,,
619,0.001,,
620,0.001,,
621,0.001,,
622,0.001,,
623,0.002,,
624,0.002,,
625,0.002,,
626,0.001,,
627,0,,
628,0,,
629,-0.001,,
630,0.001,,
631,0.001,,
632,0.002,,
633,0.001,,
634,0,,
635,0,,
636,0,,
637,-0.001,,
638,0,,
639,0.001,,
640,0.001,,
641,0.001,,
642,0.001,,
643,0.002,,
644,0.002,,
645,0.001,,
646,0,,
647,0.001,,
648,0.001,,
649,0.001,,
650,0,,
651,0,,
652,-0.002,,
653,-0.002,,
654,-0.002,,
655,0,,
656,0.001,,
657,0.002,,
658,0.001,,
659,-0.001,,
660,-0.002,,
661,-0.001,,
662,0.001,,
663,0,,
664,-0.001,,
665,0,,
666,0.001,,
667,0.002,,
668,0.001,,
669,0.002,,
670,0.001,,
671,-0.001,,
672,-0.003,,
673,0,,
674,0.001,,
675,0.001,,
676,0.001,,
677,0.002,,
678,0,,
679,-0.001,,
680,0,,
681,0.001,,
682,0,,
683,-0.001,,
684,-0.002,,
685,0,,
686,0.001,,
687,0.002,,
688,0.001,,
689,0,,
690,0.001,,
691,0.001,,
692,0.001,,
693,-0.001,,
694,-0.004,,
695,-0.004,,
696,-0.003,,
697,-0.001,,
698,0,,
699,0.001,,
700,-0.001,,
701,-0.002,,
702,-0.004,,
703,-0.002,,
704,0,,
705,0,,
706,0.001,,
707,0,,
708,0,,
709,-0.001,,
710,0,,
711,0.001,,
712,0.001,,
713,0,,
714,-0.001,,
715,-0.002,,
716,-0.003,,
717,-0.003,,
718,0,,
719,0.001,,
720,0,,
721,-0.001,,
722,-0.002,,
723,-0.003,,
724,-0.002,,
725,-0.001,,
726,-0.001,,
727,-0.003,,
728,-0.003,,
729,-0.002,,
730,-0.001,,
731,-0.001,,
732,-0.002,,
733,-0.002,,
734,-0.001,,
735,0.002,,
736,0.001,,
737,0.001,,
738,0,,
739,-0.001,,
740,-0.001,,
741,-0.002,,
742,-0.002,,
743,-0.004,,
744,-0.001,,
745,-0.001,,
746,0.001,,
747,-0.004,,
748,-0.003,,
749,0,,
750,0,,
751,-0.002,,
752,-0.002,,
753,-0.001,,
754,-0.002,,
755,-0.002,,
756,-0.001,,
757,-0.002,,
758,-0.002,,
759,-0.001,,
760,-0.001,,
761,-0.001,,
762,-0.001,,
763,-0.002,,
764,-0.001,,
765,-0.002,,
766,0,,
767,0,,
768,-0.001,,
769,-0.004,,
770,-0.001,,
771,0,,
772,0,,
773,-0.001,,
774,-0.001,,
775,0,,
776,-0.001,,
777,0.001,,
778,0.002,,
779,0,,
780,-0.002,,
781,-0.005,,
782,-0.004,,
783,-0.006,,
784,-0.005,,
785,-0.006,,
786,-0.004,,
787,-0.004,,
788,-0.003,,
789,-0.001,,
790,0.002,,
791,0.002,,
792,-0.002,,
793,-0.005,,
794,-0.003,,
795,-0.003,,
796,-0.001,,
797,0.002,,
798,0.004,,
799,0,,
800,-0.002,,
801,-0.006,,
802,-0.001,,
803,-0.002,,
804,0,,
805,-0.002,,
806,-0.003,,
807,-0.008,,
808,-0.005,,
809,-0.007,,
810,-0.01,,
811,-0.01,,
812,-0.006,,
813,-0.003,,
814,0,,
815,0.004,,
816,0.002,,
817,-0.002,,
818,-0.005,,
819,-0.003,,
820,-0.004,,
821,-0.005,,
822,-0.003,,
823,0.001,,
824,-0.002,,
825,-0.001,,
826,0.002,,
827,0.003,,
828,0,,
829,0.001,,
830,0.004,,
831,0,,
832,-0.005,,
833,-0.004,,
834,0,,
835,0.001,,
836,0.002,,
837,-0.001,,
838,-0.001,,
839,-0.004,,
840,0.004,,
